freq,psd_x,psd_y,psd_z,psd_xyz
0.0,9.791e+02,2.898e+01,3.739e+01,1.045e+03
1.5,5.743e+02,6.845e+01,5.388e+01,6.966e+02
3.0,5.760e+01,7.230e+01,3.994e+01,1.698e+02
4.5,2.959e+02,7.467e+01,3.562e+01,4.062e+02
6.0,1.087e+03,7.895e+01,3.677e+01,1.202e+03
7.5,1.812e+03,8.331e+01,3.680e+01,1.932e+03
9.0,2.480e+03,8.572e+01,3.469e+01,2.601e+03
10.5,3.356e+03,8.181e+01,3.455e+01,3.472e+03
12.0,4.361e+03,7.559e+01,3.895e+01,4.475e+03
13.5,5.562e+03,8.503e+01,4.142e+01,5.688e+03
15.0,7.080e+03,9.411e+01,4.269e+01,7.217e+03
16.5,9.201e+03,9.526e+01,4.674e+01,9.343e+03
18.0,1.217e+04,1.263e+02,4.363e+01,1.234e+04
19.5,1.548e+04,1.927e+02,4.482e+01,1.572e+04
21.0,1.977e+04,2.415e+02,5.034e+01,2.006e+04
22.5,2.576e+04,3.002e+02,6.781e+01,2.613e+04
24.0,3.319e+04,3.783e+02,8.385e+01,3.365e+04
25.5,4.079e+04,4.070e+02,8.757e+01,4.129e+04
27.0,4.945e+04,4.237e+02,8.714e+01,4.996e+04
28.5,6.088e+04,6.168e+02,9.932e+01,6.160e+04
30.0,7.574e+04,1.149e+03,1.279e+02,7.702e+04
31.5,9.370e+04,1.843e+03,1.589e+02,9.570e+04
33.0,1.188e+05,2.303e+03,1.927e+02,1.213e+05
34.5,1.521e+05,3.596e+03,3.940e+02,1.561e+05
36.0,1.976e+05,7.263e+03,1.023e+03,2.059e+05
37.5,2.601e+05,1.446e+04,2.279e+03,2.769e+05
39.0,3.386e+05,2.281e+04,3.828e+03,3.652e+05
40.5,4.408e+05,2.243e+04,4.078e+03,4.673e+05
42.0,5.938e+05,1.681e+04,4.016e+03,6.146e+05
43.5,8.517e+05,1.139e+04,5.460e+03,8.686e+05
45.0,1.276e+06,1.296e+04,1.106e+04,1.300e+06
46.5,1.925e+06,1.926e+04,1.928e+04,1.963e+06
48.0,2.808e+06,2.432e+04,1.728e+04,2.850e+06
49.5,3.109e+06,2.453e+04,1.549e+04,3.149e+06
51.0,2.959e+06,2.467e+04,3.496e+04,3.019e+06
52.5,2.677e+06,1.977e+04,5.627e+04,2.753e+06
54.0,2.236e+06,1.411e+04,6.142e+04,2.311e+06
55.5,1.662e+06,1.017e+04,6.747e+04,1.740e+06
57.0,1.243e+06,7.598e+03,7.219e+04,1.323e+06
58.5,9.796e+05,7.559e+03,6.642e+04,1.054e+06
60.0,7.803e+05,8.209e+03,5.294e+04,8.415e+05
61.5,6.467e+05,9.966e+03,4.242e+04,6.991e+05
63.0,5.377e+05,1.162e+04,3.645e+04,5.858e+05
64.5,4.397e+05,1.136e+04,3.063e+04,4.817e+05
66.0,3.865e+05,9.732e+03,2.772e+04,4.240e+05
67.5,3.616e+05,8.420e+03,2.680e+04,3.968e+05
69.0,3.555e+05,7.507e+03,2.639e+04,3.894e+05
70.5,3.726e+05,6.824e+03,2.804e+04,4.075e+05
72.0,3.953e+05,6.271e+03,3.005e+04,4.316e+05
73.5,4.382e+05,6.325e+03,3.397e+04,4.785e+05
75.0,4.287e+05,6.725e+03,3.345e+04,4.689e+05
76.5,3.879e+05,7.827e+03,2.952e+04,4.252e+05
78.0,3.609e+05,9.417e+03,2.790e+04,3.982e+05
79.5,3.404e+05,1.071e+04,2.695e+04,3.781e+05
81.0,3.219e+05,1.320e+04,2.536e+04,3.604e+05
82.5,3.131e+05,1.822e+04,2.450e+04,3.558e+05
84.0,3.020e+05,2.608e+04,2.420e+04,3.523e+05
85.5,2.788e+05,3.046e+04,2.088e+04,3.302e+05
87.0,2.709e+05,3.036e+04,1.782e+04,3.191e+05
88.5,2.656e+05,2.677e+04,1.526e+04,3.076e+05
90.0,2.654e+05,1.970e+04,1.361e+04,2.987e+05
91.5,2.661e+05,1.355e+04,1.371e+04,2.934e+05
93.0,2.770e+05,1.028e+04,1.449e+04,3.017e+05
94.5,2.940e+05,7.901e+03,1.522e+04,3.171e+05
96.0,3.108e+05,7.511e+03,1.598e+04,3.343e+05
97.5,3.234e+05,8.342e+03,1.678e+04,3.485e+05
99.0,3.388e+05,8.414e+03,1.790e+04,3.651e+05
100.5,3.629e+05,8.008e+03,1.960e+04,3.905e+05
102.0,3.936e+05,7.422e+03,2.254e+04,4.236e+05
103.5,4.194e+05,7.467e+03,2.643e+04,4.533e+05
105.0,4.457e+05,7.424e+03,3.238e+04,4.855e+05
106.5,4.587e+05,7.011e+03,3.784e+04,5.035e+05
108.0,4.582e+05,6.504e+03,4.087e+04,5.056e+05
109.5,4.650e+05,6.372e+03,4.602e+04,5.174e+05
111.0,4.741e+05,7.744e+03,5.192e+04,5.338e+05
112.5,4.562e+05,1.015e+04,5.479e+04,5.211e+05
114.0,4.722e+05,1.389e+04,6.699e+04,5.531e+05
115.5,5.390e+05,2.173e+04,9.454e+04,6.553e+05
117.0,6.197e+05,3.778e+04,1.353e+05,7.928e+05
118.5,6.364e+05,5.728e+04,1.654e+05,8.591e+05
120.0,6.213e+05,8.124e+04,1.895e+05,8.921e+05
121.5,5.780e+05,1.038e+05,1.997e+05,8.815e+05
123.0,5.090e+05,1.067e+05,1.678e+05,7.835e+05
124.5,4.972e+05,8.999e+04,1.152e+05,7.024e+05
126.0,5.671e+05,6.779e+04,7.153e+04,7.064e+05
127.5,6.684e+05,5.200e+04,4.467e+04,7.651e+05
129.0,7.956e+05,4.135e+04,3.137e+04,8.683e+05
130.5,8.785e+05,3.103e+04,2.558e+04,9.351e+05
132.0,6.625e+05,1.762e+04,1.750e+04,6.976e+05
133.5,1.585e+05,4.603e+03,4.017e+03,1.671e+05
135.0,5.392e+04,1.953e+03,1.320e+03,5.719e+04
136.5,6.462e+04,1.924e+03,1.843e+03,6.839e+04
138.0,7.393e+04,2.131e+03,2.332e+03,7.839e+04
139.5,8.697e+04,2.470e+03,2.989e+03,9.243e+04
141.0,1.129e+05,2.625e+03,4.343e+03,1.198e+05
142.5,1.713e+05,2.586e+03,7.183e+03,1.811e+05
144.0,2.535e+05,2.882e+03,1.148e+04,2.678e+05
145.5,3.140e+05,3.435e+03,1.566e+04,3.331e+05
147.0,3.274e+05,3.722e+03,1.832e+04,3.494e+05
148.5,3.381e+05,4.308e+03,2.050e+04,3.629e+05
150.0,3.312e+05,4.588e+03,2.143e+04,3.572e+05
151.5,2.989e+05,4.838e+03,2.102e+04,3.247e+05
153.0,2.428e+05,4.687e+03,1.857e+04,2.661e+05
154.5,1.675e+05,3.764e+03,1.436e+04,1.857e+05
156.0,1.173e+05,3.136e+03,1.137e+04,1.318e+05
157.5,8.867e+04,2.531e+03,9.462e+03,1.007e+05
159.0,6.924e+04,2.136e+03,8.070e+03,7.945e+04
160.5,5.859e+04,2.015e+03,7.403e+03,6.801e+04
162.0,4.990e+04,1.754e+03,6.201e+03,5.785e+04
163.5,3.776e+04,1.440e+03,4.887e+03,4.409e+04
165.0,3.023e+04,1.497e+03,4.407e+03,3.614e+04
166.5,2.489e+04,1.658e+03,3.798e+03,3.035e+04
168.0,2.228e+04,1.686e+03,3.473e+03,2.744e+04
169.5,1.878e+04,1.621e+03,3.338e+03,2.374e+04
171.0,1.937e+04,1.775e+03,3.591e+03,2.474e+04
172.5,1.958e+04,2.074e+03,3.641e+03,2.530e+04
174.0,1.951e+04,2.369e+03,3.702e+03,2.558e+04
175.5,2.040e+04,2.805e+03,3.921e+03,2.713e+04
177.0,1.984e+04,2.980e+03,3.909e+03,2.672e+04
178.5,1.891e+04,2.833e+03,3.545e+03,2.529e+04
180.0,1.814e+04,2.719e+03,3.282e+03,2.414e+04
181.5,1.858e+04,2.739e+03,3.283e+03,2.461e+04
183.0,1.776e+04,2.838e+03,3.296e+03,2.389e+04
184.5,1.719e+04,3.224e+03,3.644e+03,2.406e+04
186.0,1.653e+04,3.323e+03,3.777e+03,2.363e+04
187.5,1.676e+04,3.429e+03,3.976e+03,2.416e+04
189.0,1.798e+04,3.861e+03,4.494e+03,2.633e+04
190.5,2.112e+04,4.093e+03,5.271e+03,3.048e+04
192.0,2.430e+04,4.291e+03,5.628e+03,3.422e+04
193.5,2.869e+04,4.496e+03,6.161e+03,3.934e+04
195.0,3.240e+04,4.704e+03,6.952e+03,4.406e+04
196.5,3.495e+04,4.691e+03,6.915e+03,4.655e+04
198.0,3.759e+04,5.141e+03,7.277e+03,5.001e+04
199.5,3.820e+04,5.162e+03,7.275e+03,5.064e+04
