freq,psd_x,psd_y,psd_z,psd_xyz
0.0,5.059e+02,2.482e+01,2.948e+01,5.602e+02
1.5,3.185e+02,8.578e+01,1.410e+02,5.452e+02
3.0,5.475e+01,9.454e+01,1.494e+02,2.987e+02
4.5,2.895e+02,8.434e+01,1.258e+02,4.996e+02
6.0,1.091e+03,7.389e+01,1.295e+02,1.295e+03
7.5,1.839e+03,8.369e+01,1.447e+02,2.067e+03
9.0,2.668e+03,9.220e+01,1.363e+02,2.896e+03
10.5,3.828e+03,9.473e+01,1.249e+02,4.047e+03
12.0,4.822e+03,9.271e+01,1.164e+02,5.031e+03
13.5,6.003e+03,9.218e+01,1.231e+02,6.218e+03
15.0,7.810e+03,8.965e+01,1.319e+02,8.032e+03
16.5,9.790e+03,8.922e+01,1.455e+02,1.003e+04
18.0,1.160e+04,1.115e+02,1.656e+02,1.188e+04
19.5,1.366e+04,1.287e+02,1.711e+02,1.396e+04
21.0,1.643e+04,1.201e+02,1.492e+02,1.670e+04
22.5,1.945e+04,1.234e+02,1.332e+02,1.971e+04
24.0,2.277e+04,1.371e+02,1.340e+02,2.304e+04
25.5,2.655e+04,1.445e+02,1.360e+02,2.683e+04
27.0,3.082e+04,1.533e+02,1.351e+02,3.111e+04
28.5,3.627e+04,1.853e+02,1.485e+02,3.660e+04
30.0,4.215e+04,2.192e+02,1.473e+02,4.252e+04
31.5,4.905e+04,2.489e+02,1.508e+02,4.945e+04
33.0,5.734e+04,3.176e+02,1.630e+02,5.782e+04
34.5,6.619e+04,3.578e+02,1.894e+02,6.674e+04
36.0,7.548e+04,3.805e+02,1.895e+02,7.605e+04
37.5,8.744e+04,4.294e+02,1.910e+02,8.806e+04
39.0,1.033e+05,5.293e+02,1.742e+02,1.040e+05
40.5,1.252e+05,7.200e+02,1.642e+02,1.261e+05
42.0,1.553e+05,1.087e+03,2.289e+02,1.566e+05
43.5,1.941e+05,1.870e+03,3.563e+02,1.963e+05
45.0,2.380e+05,3.156e+03,5.670e+02,2.417e+05
46.5,2.652e+05,4.339e+03,7.318e+02,2.702e+05
48.0,3.036e+05,6.212e+03,9.432e+02,3.107e+05
49.5,3.949e+05,1.028e+04,1.652e+03,4.069e+05
51.0,5.351e+05,1.538e+04,2.785e+03,5.532e+05
52.5,7.636e+05,1.838e+04,6.239e+03,7.882e+05
54.0,1.042e+06,2.051e+04,1.591e+04,1.079e+06
55.5,1.114e+06,1.786e+04,1.668e+04,1.148e+06
57.0,9.860e+05,1.048e+04,5.095e+03,1.002e+06
58.5,8.750e+05,6.107e+03,1.636e+03,8.828e+05
60.0,8.213e+05,4.485e+03,3.166e+03,8.289e+05
61.5,7.342e+05,5.481e+03,4.904e+03,7.445e+05
63.0,6.218e+05,9.256e+03,6.179e+03,6.372e+05
64.5,5.089e+05,1.303e+04,6.526e+03,5.284e+05
66.0,4.757e+05,1.637e+04,8.113e+03,5.002e+05
67.5,5.415e+05,2.204e+04,1.623e+04,5.798e+05
69.0,6.331e+05,3.428e+04,4.019e+04,7.075e+05
70.5,6.360e+05,4.489e+04,6.362e+04,7.445e+05
72.0,5.661e+05,4.198e+04,6.847e+04,6.765e+05
73.5,6.686e+05,2.864e+04,5.686e+04,7.541e+05
75.0,9.849e+05,1.396e+04,3.619e+04,1.035e+06
76.5,1.232e+06,1.622e+04,3.106e+04,1.280e+06
78.0,9.505e+05,1.884e+04,3.003e+04,9.994e+05
79.5,7.092e+05,6.842e+03,1.095e+04,7.270e+05
81.0,6.231e+05,6.775e+02,1.084e+03,6.248e+05
82.4,4.704e+05,3.641e+02,5.572e+02,4.714e+05
83.9,3.574e+05,3.324e+02,7.841e+02,3.585e+05
85.4,2.946e+05,5.916e+02,1.348e+03,2.965e+05
86.9,2.679e+05,1.475e+03,2.584e+03,2.720e+05
88.4,2.634e+05,2.936e+03,4.160e+03,2.705e+05
89.9,2.734e+05,4.351e+03,5.404e+03,2.831e+05
91.4,2.740e+05,4.562e+03,5.066e+03,2.836e+05
92.9,2.509e+05,4.250e+03,4.393e+03,2.595e+05
94.4,2.219e+05,5.237e+03,4.526e+03,2.316e+05
95.9,2.024e+05,6.586e+03,5.011e+03,2.140e+05
97.4,1.836e+05,7.527e+03,4.876e+03,1.960e+05
98.9,1.650e+05,9.733e+03,4.812e+03,1.795e+05
100.4,1.529e+05,1.379e+04,4.826e+03,1.715e+05
101.9,1.466e+05,1.807e+04,4.295e+03,1.689e+05
103.4,1.634e+05,2.007e+04,2.826e+03,1.863e+05
104.9,1.775e+05,1.503e+04,2.487e+03,1.950e+05
106.4,1.363e+05,1.009e+04,2.914e+03,1.493e+05
107.9,1.225e+05,9.473e+03,2.011e+03,1.340e+05
109.4,1.164e+05,8.173e+03,1.885e+03,1.264e+05
110.9,1.612e+05,7.377e+03,3.372e+03,1.720e+05
112.4,2.209e+05,4.811e+03,4.454e+03,2.301e+05
113.9,2.981e+05,2.837e+03,5.703e+03,3.066e+05
115.4,3.396e+05,1.750e+03,6.551e+03,3.479e+05
116.9,3.507e+05,1.106e+03,7.004e+03,3.588e+05
118.4,3.464e+05,9.304e+02,7.464e+03,3.548e+05
119.9,3.277e+05,1.059e+03,7.593e+03,3.364e+05
121.4,3.130e+05,1.513e+03,7.337e+03,3.218e+05
122.9,3.164e+05,2.035e+03,7.720e+03,3.261e+05
124.4,3.207e+05,2.235e+03,7.740e+03,3.306e+05
125.9,3.169e+05,2.183e+03,7.759e+03,3.268e+05
127.4,3.203e+05,1.974e+03,8.215e+03,3.305e+05
128.9,3.266e+05,1.799e+03,8.974e+03,3.374e+05
130.4,3.361e+05,1.632e+03,1.005e+04,3.478e+05
131.9,2.643e+05,1.380e+03,8.595e+03,2.742e+05
133.4,6.210e+04,5.485e+02,2.271e+03,6.492e+04
134.9,8.289e+03,3.574e+02,5.100e+02,9.157e+03
136.4,8.519e+03,4.528e+02,5.280e+02,9.499e+03
137.9,8.460e+03,5.311e+02,5.797e+02,9.571e+03
139.4,7.926e+03,5.305e+02,6.359e+02,9.092e+03
140.9,7.650e+03,3.980e+02,6.918e+02,8.740e+03
142.4,8.469e+03,3.190e+02,6.640e+02,9.452e+03
143.9,9.541e+03,3.480e+02,6.351e+02,1.052e+04
145.4,8.632e+03,2.844e+02,5.938e+02,9.511e+03
146.9,7.194e+03,2.903e+02,5.358e+02,8.020e+03
148.4,6.549e+03,3.745e+02,4.813e+02,7.405e+03
149.9,6.451e+03,4.005e+02,3.822e+02,7.234e+03
151.4,5.927e+03,3.934e+02,3.538e+02,6.674e+03
152.9,4.228e+03,5.093e+02,4.867e+02,5.224e+03
154.4,3.962e+03,6.858e+02,4.775e+02,5.126e+03
155.9,5.882e+03,9.800e+02,4.228e+02,7.285e+03
157.4,1.270e+04,1.562e+03,7.882e+02,1.505e+04
158.9,2.243e+04,1.672e+03,1.450e+03,2.556e+04
160.4,2.706e+04,1.372e+03,1.817e+03,3.025e+04
161.9,3.108e+04,1.444e+03,2.200e+03,3.472e+04
163.4,3.298e+04,1.474e+03,2.425e+03,3.688e+04
164.9,3.186e+04,1.515e+03,2.512e+03,3.589e+04
166.4,2.746e+04,1.511e+03,2.268e+03,3.124e+04
167.9,2.366e+04,1.742e+03,2.116e+03,2.752e+04
169.4,2.268e+04,1.947e+03,2.055e+03,2.668e+04
170.9,2.139e+04,1.923e+03,1.964e+03,2.527e+04
172.4,1.882e+04,1.891e+03,1.735e+03,2.244e+04
173.9,1.690e+04,1.835e+03,1.477e+03,2.021e+04
175.4,1.598e+04,1.738e+03,1.304e+03,1.903e+04
176.9,1.547e+04,1.777e+03,1.237e+03,1.849e+04
178.4,1.530e+04,1.792e+03,1.126e+03,1.822e+04
179.9,1.562e+04,1.862e+03,1.001e+03,1.849e+04
181.4,1.613e+04,1.983e+03,8.869e+02,1.900e+04
182.9,1.702e+04,1.983e+03,7.976e+02,1.980e+04
184.4,1.892e+04,2.265e+03,6.560e+02,2.184e+04
185.9,1.746e+04,2.184e+03,5.102e+02,2.016e+04
187.4,1.780e+04,2.176e+03,4.199e+02,2.039e+04
188.9,1.952e+04,2.322e+03,3.507e+02,2.219e+04
190.4,2.295e+04,2.292e+03,3.246e+02,2.557e+04
191.9,2.375e+04,2.434e+03,2.874e+02,2.647e+04
193.4,2.473e+04,2.613e+03,2.368e+02,2.758e+04
194.9,2.641e+04,2.651e+03,2.067e+02,2.927e+04
196.4,2.665e+04,2.425e+03,1.985e+02,2.927e+04
197.9,2.618e+04,2.234e+03,2.122e+02,2.862e+04
199.4,2.745e+04,2.057e+03,2.113e+02,2.972e+04
