freq,psd_x,psd_y,psd_z,psd_xyz
0.0,6.971e+02,1.860e+01,2.448e+01,7.402e+02
1.5,4.279e+02,4.646e+01,9.341e+01,5.677e+02
3.0,7.689e+01,4.403e+01,1.095e+02,2.304e+02
4.5,3.265e+02,4.761e+01,1.008e+02,4.749e+02
6.0,1.151e+03,5.589e+01,1.128e+02,1.320e+03
7.5,1.793e+03,5.521e+01,1.239e+02,1.972e+03
8.9,2.531e+03,5.319e+01,1.219e+02,2.707e+03
10.4,3.518e+03,5.133e+01,1.257e+02,3.695e+03
11.9,4.597e+03,4.512e+01,1.154e+02,4.758e+03
13.4,5.892e+03,4.971e+01,1.219e+02,6.064e+03
14.9,7.496e+03,5.768e+01,1.130e+02,7.667e+03
16.4,9.485e+03,5.999e+01,1.151e+02,9.660e+03
17.9,1.201e+04,5.675e+01,1.249e+02,1.219e+04
19.4,1.489e+04,6.965e+01,1.156e+02,1.507e+04
20.9,1.796e+04,8.490e+01,1.073e+02,1.815e+04
22.4,2.148e+04,1.042e+02,1.029e+02,2.169e+04
23.8,2.581e+04,1.190e+02,1.114e+02,2.604e+04
25.3,3.080e+04,1.420e+02,1.153e+02,3.106e+04
26.8,3.709e+04,2.109e+02,1.046e+02,3.741e+04
28.3,4.419e+04,3.653e+02,1.220e+02,4.468e+04
29.8,5.218e+04,6.115e+02,1.423e+02,5.294e+04
31.3,6.168e+04,8.861e+02,1.625e+02,6.273e+04
32.8,7.231e+04,1.231e+03,2.076e+02,7.375e+04
34.3,8.536e+04,1.568e+03,2.405e+02,8.717e+04
35.8,1.025e+05,2.092e+03,3.239e+02,1.049e+05
37.3,1.248e+05,2.981e+03,4.128e+02,1.282e+05
38.7,1.532e+05,5.296e+03,6.234e+02,1.591e+05
40.2,1.896e+05,1.286e+04,1.387e+03,2.038e+05
41.7,2.343e+05,2.758e+04,3.226e+03,2.651e+05
43.2,2.915e+05,3.820e+04,5.464e+03,3.352e+05
44.7,3.752e+05,3.477e+04,6.765e+03,4.168e+05
46.2,4.945e+05,2.617e+04,7.577e+03,5.283e+05
47.7,6.700e+05,2.066e+04,9.232e+03,6.999e+05
49.2,9.538e+05,1.565e+04,1.006e+04,9.795e+05
50.7,1.394e+06,1.179e+04,1.111e+04,1.417e+06
52.2,1.686e+06,1.103e+04,1.669e+04,1.714e+06
53.6,1.745e+06,1.026e+04,2.104e+04,1.777e+06
55.1,1.758e+06,9.234e+03,2.092e+04,1.788e+06
56.6,1.702e+06,9.457e+03,2.082e+04,1.732e+06
58.1,1.544e+06,8.993e+03,2.119e+04,1.574e+06
59.6,1.349e+06,6.776e+03,1.898e+04,1.374e+06
61.1,1.158e+06,3.608e+03,1.275e+04,1.174e+06
62.6,9.756e+05,1.647e+03,6.413e+03,9.837e+05
64.1,8.022e+05,1.845e+03,2.151e+03,8.062e+05
65.6,6.359e+05,3.426e+03,1.909e+03,6.413e+05
67.1,5.079e+05,3.628e+03,2.970e+03,5.145e+05
68.5,4.253e+05,2.465e+03,3.274e+03,4.310e+05
70.0,3.787e+05,1.478e+03,2.654e+03,3.828e+05
71.5,4.161e+05,1.613e+03,1.796e+03,4.195e+05
73.0,5.933e+05,3.955e+03,7.965e+02,5.981e+05
74.5,7.049e+05,7.583e+03,5.615e+02,7.130e+05
76.0,6.858e+05,9.318e+03,5.691e+02,6.957e+05
77.5,6.053e+05,8.902e+03,6.206e+02,6.148e+05
79.0,5.179e+05,8.163e+03,5.637e+02,5.266e+05
80.5,4.872e+05,7.930e+03,5.508e+02,4.957e+05
82.0,4.747e+05,7.878e+03,5.157e+02,4.831e+05
83.5,4.285e+05,7.616e+03,4.411e+02,4.365e+05
84.9,3.955e+05,7.684e+03,4.023e+02,4.036e+05
86.4,3.950e+05,9.064e+03,4.296e+02,4.045e+05
87.9,3.826e+05,1.039e+04,5.171e+02,3.935e+05
89.4,3.920e+05,1.032e+04,6.594e+02,4.030e+05
90.9,4.004e+05,9.575e+03,7.723e+02,4.107e+05
92.4,4.055e+05,8.683e+03,7.547e+02,4.149e+05
93.9,3.995e+05,5.985e+03,7.120e+02,4.062e+05
95.4,3.949e+05,4.283e+03,6.780e+02,3.998e+05
96.9,4.061e+05,2.293e+03,4.042e+02,4.088e+05
98.4,3.719e+05,1.671e+03,3.955e+02,3.740e+05
99.8,3.909e+05,1.526e+03,6.219e+02,3.931e+05
101.3,4.004e+05,1.829e+03,8.231e+02,4.030e+05
102.8,3.819e+05,1.930e+03,9.172e+02,3.847e+05
104.3,3.779e+05,1.425e+03,8.491e+02,3.801e+05
105.8,3.733e+05,1.018e+03,8.509e+02,3.751e+05
107.3,3.777e+05,1.119e+03,8.032e+02,3.796e+05
108.8,3.656e+05,9.581e+02,9.686e+02,3.675e+05
110.3,3.506e+05,6.505e+02,1.155e+03,3.524e+05
111.8,3.305e+05,5.058e+02,1.305e+03,3.323e+05
113.3,3.075e+05,4.638e+02,1.492e+03,3.095e+05
114.7,3.016e+05,4.658e+02,1.506e+03,3.036e+05
116.2,2.868e+05,4.688e+02,1.442e+03,2.887e+05
117.7,2.861e+05,6.422e+02,1.465e+03,2.882e+05
119.2,2.881e+05,8.318e+02,1.544e+03,2.905e+05
120.7,3.016e+05,9.558e+02,1.688e+03,3.043e+05
122.2,3.193e+05,1.049e+03,1.774e+03,3.221e+05
123.7,3.175e+05,1.059e+03,1.897e+03,3.205e+05
125.2,3.135e+05,1.009e+03,2.133e+03,3.166e+05
126.7,3.167e+05,1.023e+03,2.235e+03,3.200e+05
128.2,3.254e+05,1.273e+03,2.210e+03,3.289e+05
129.6,3.325e+05,1.627e+03,2.063e+03,3.362e+05
131.1,3.096e+05,1.791e+03,1.914e+03,3.133e+05
132.6,1.662e+05,1.320e+03,1.229e+03,1.687e+05
134.1,2.212e+04,5.578e+02,2.818e+02,2.296e+04
135.6,8.846e+03,3.789e+02,1.891e+02,9.414e+03
137.1,8.939e+03,3.321e+02,1.899e+02,9.461e+03
138.6,8.957e+03,3.523e+02,1.886e+02,9.498e+03
140.1,8.710e+03,3.865e+02,1.828e+02,9.280e+03
141.6,8.238e+03,4.042e+02,1.963e+02,8.838e+03
143.1,8.899e+03,5.423e+02,2.170e+02,9.658e+03
144.5,1.051e+04,8.130e+02,2.589e+02,1.158e+04
146.0,1.121e+04,1.090e+03,3.001e+02,1.260e+04
147.5,1.153e+04,1.132e+03,2.869e+02,1.295e+04
149.0,1.184e+04,1.195e+03,2.571e+02,1.329e+04
150.5,1.177e+04,1.199e+03,2.846e+02,1.325e+04
152.0,1.319e+04,1.158e+03,3.331e+02,1.468e+04
153.5,1.655e+04,1.070e+03,2.988e+02,1.792e+04
155.0,2.078e+04,1.056e+03,2.838e+02,2.212e+04
156.5,2.502e+04,9.761e+02,3.401e+02,2.633e+04
158.0,2.749e+04,8.664e+02,3.764e+02,2.873e+04
159.5,3.041e+04,8.304e+02,4.005e+02,3.164e+04
160.9,3.112e+04,7.224e+02,4.207e+02,3.226e+04
162.4,2.999e+04,6.110e+02,4.401e+02,3.105e+04
163.9,2.937e+04,5.715e+02,4.811e+02,3.043e+04
165.4,3.445e+04,6.449e+02,6.418e+02,3.573e+04
166.9,4.069e+04,7.108e+02,8.127e+02,4.222e+04
168.4,3.645e+04,6.753e+02,8.248e+02,3.795e+04
169.9,3.357e+04,5.870e+02,9.457e+02,3.511e+04
171.4,2.944e+04,4.755e+02,9.130e+02,3.083e+04
172.9,2.527e+04,4.141e+02,9.234e+02,2.661e+04
174.4,2.195e+04,3.866e+02,8.891e+02,2.322e+04
175.8,2.099e+04,3.561e+02,9.433e+02,2.229e+04
177.3,1.738e+04,3.012e+02,9.678e+02,1.864e+04
178.8,1.444e+04,2.619e+02,1.026e+03,1.573e+04
180.3,1.168e+04,2.049e+02,1.051e+03,1.293e+04
181.8,1.008e+04,1.855e+02,1.101e+03,1.137e+04
183.3,9.354e+03,2.010e+02,1.074e+03,1.063e+04
184.8,7.856e+03,1.791e+02,1.091e+03,9.126e+03
186.3,6.856e+03,1.729e+02,1.101e+03,8.129e+03
187.8,6.179e+03,1.599e+02,9.675e+02,7.306e+03
189.3,6.083e+03,1.669e+02,6.875e+02,6.937e+03
190.7,6.711e+03,1.535e+02,8.376e+02,7.702e+03
192.2,7.172e+03,1.444e+02,8.927e+02,8.209e+03
193.7,8.582e+03,1.380e+02,8.755e+02,9.596e+03
195.2,1.030e+04,1.562e+02,8.865e+02,1.134e+04
196.7,1.004e+04,1.692e+02,7.709e+02,1.098e+04
198.2,1.326e+04,1.869e+02,6.507e+02,1.410e+04
199.7,1.864e+04,1.873e+02,6.320e+02,1.945e+04
