freq,psd_x,psd_y,psd_z,psd_xyz
0.0,2.629e+01,4.915e+02,5.911e+01,5.769e+02
1.5,4.293e+01,3.089e+02,5.485e+01,4.067e+02
3.0,3.827e+01,5.374e+01,3.288e+01,1.249e+02
4.5,3.481e+01,3.098e+02,3.466e+01,3.792e+02
6.0,3.498e+01,1.219e+03,3.761e+01,1.292e+03
7.5,3.727e+01,2.118e+03,3.769e+01,2.193e+03
9.0,3.800e+01,3.107e+03,3.937e+01,3.184e+03
10.5,4.129e+01,4.438e+03,3.981e+01,4.519e+03
12.0,3.980e+01,5.764e+03,3.900e+01,5.842e+03
13.5,3.764e+01,6.745e+03,3.916e+01,6.821e+03
15.0,3.834e+01,8.967e+03,3.705e+01,9.042e+03
16.5,3.727e+01,1.164e+04,3.730e+01,1.172e+04
17.9,4.003e+01,1.452e+04,4.240e+01,1.460e+04
19.4,4.107e+01,1.792e+04,4.847e+01,1.801e+04
20.9,3.941e+01,2.224e+04,5.408e+01,2.233e+04
22.4,4.125e+01,2.726e+04,6.047e+01,2.736e+04
23.9,4.270e+01,3.320e+04,7.779e+01,3.332e+04
25.4,4.088e+01,4.067e+04,1.118e+02,4.082e+04
26.9,4.634e+01,5.030e+04,1.667e+02,5.051e+04
28.4,5.729e+01,6.245e+04,2.558e+02,6.276e+04
29.9,6.716e+01,7.779e+04,4.243e+02,7.828e+04
31.4,8.382e+01,9.885e+04,7.378e+02,9.968e+04
32.9,1.144e+02,1.280e+05,1.334e+03,1.295e+05
34.4,1.548e+02,1.708e+05,2.358e+03,1.733e+05
35.9,2.191e+02,2.370e+05,4.203e+03,2.414e+05
37.4,3.243e+02,3.477e+05,7.809e+03,3.558e+05
38.9,6.846e+02,5.530e+05,1.493e+04,5.686e+05
40.4,3.669e+03,8.971e+05,2.373e+04,9.245e+05
41.9,1.437e+04,1.219e+06,2.301e+04,1.256e+06
43.4,2.647e+04,1.325e+06,2.039e+04,1.372e+06
44.9,2.935e+04,1.233e+06,2.476e+04,1.287e+06
46.4,2.166e+04,1.056e+06,3.315e+04,1.111e+06
47.9,1.492e+04,8.393e+05,4.502e+04,8.992e+05
49.4,1.121e+04,6.527e+05,6.230e+04,7.262e+05
50.9,8.898e+03,4.990e+05,7.949e+04,5.874e+05
52.4,7.865e+03,3.625e+05,1.031e+05,4.734e+05
53.8,8.119e+03,2.500e+05,1.588e+05,4.169e+05
55.3,8.227e+03,1.775e+05,2.157e+05,4.015e+05
56.8,7.780e+03,1.331e+05,2.379e+05,3.787e+05
58.3,5.241e+03,1.121e+05,2.483e+05,3.657e+05
59.8,3.600e+03,1.294e+05,2.420e+05,3.750e+05
61.3,4.269e+03,1.674e+05,1.913e+05,3.630e+05
62.8,4.278e+03,1.786e+05,1.103e+05,2.931e+05
64.3,2.953e+03,1.543e+05,5.108e+04,2.084e+05
65.8,1.898e+03,1.190e+05,3.019e+04,1.511e+05
67.3,1.677e+03,9.360e+04,3.220e+04,1.275e+05
68.8,1.771e+03,8.385e+04,3.936e+04,1.250e+05
70.3,2.259e+03,7.682e+04,4.096e+04,1.200e+05
71.8,3.654e+03,6.961e+04,5.110e+04,1.244e+05
73.3,4.925e+03,7.097e+04,5.818e+04,1.341e+05
74.8,5.167e+03,7.197e+04,5.458e+04,1.317e+05
76.3,4.737e+03,7.290e+04,4.675e+04,1.244e+05
77.8,4.433e+03,7.084e+04,3.713e+04,1.124e+05
79.3,4.540e+03,6.620e+04,2.904e+04,9.978e+04
80.8,5.353e+03,6.051e+04,2.431e+04,9.017e+04
82.3,6.101e+03,5.467e+04,2.337e+04,8.414e+04
83.8,7.333e+03,5.080e+04,2.529e+04,8.342e+04
85.3,8.190e+03,4.987e+04,2.737e+04,8.543e+04
86.8,8.333e+03,5.111e+04,2.756e+04,8.700e+04
88.2,9.450e+03,5.156e+04,2.456e+04,8.557e+04
89.7,1.137e+04,4.942e+04,1.985e+04,8.064e+04
91.2,1.340e+04,4.553e+04,1.593e+04,7.487e+04
92.7,1.481e+04,4.126e+04,1.345e+04,6.951e+04
94.2,1.516e+04,3.973e+04,1.276e+04,6.765e+04
95.7,1.590e+04,3.769e+04,1.121e+04,6.480e+04
97.2,1.532e+04,3.348e+04,9.699e+03,5.850e+04
98.7,1.542e+04,2.849e+04,8.872e+03,5.279e+04
100.2,1.568e+04,2.355e+04,9.478e+03,4.871e+04
101.7,1.471e+04,2.253e+04,1.270e+04,4.993e+04
103.2,1.463e+04,2.742e+04,1.730e+04,5.936e+04
104.7,1.848e+04,3.448e+04,1.925e+04,7.221e+04
106.2,2.334e+04,3.725e+04,1.786e+04,7.845e+04
107.7,2.486e+04,3.746e+04,1.749e+04,7.981e+04
109.2,3.486e+04,4.855e+04,1.970e+04,1.031e+05
110.7,4.458e+04,4.807e+04,1.501e+04,1.077e+05
112.2,4.854e+04,4.225e+04,1.187e+04,1.027e+05
113.7,5.230e+04,4.110e+04,1.024e+04,1.036e+05
115.2,6.047e+04,3.706e+04,8.810e+03,1.063e+05
116.7,7.467e+04,3.406e+04,8.363e+03,1.171e+05
118.2,9.879e+04,3.927e+04,8.245e+03,1.463e+05
119.7,1.146e+05,3.538e+04,6.683e+03,1.567e+05
121.2,1.327e+05,2.966e+04,6.354e+03,1.687e+05
122.7,1.437e+05,2.750e+04,7.831e+03,1.791e+05
124.1,1.475e+05,3.028e+04,9.336e+03,1.871e+05
125.6,1.674e+05,2.988e+04,9.734e+03,2.070e+05
127.1,1.956e+05,2.872e+04,1.063e+04,2.349e+05
128.6,2.252e+05,2.764e+04,1.091e+04,2.638e+05
130.1,2.570e+05,2.628e+04,1.100e+04,2.943e+05
131.6,2.466e+05,2.081e+04,9.622e+03,2.770e+05
133.1,7.645e+04,5.804e+03,3.097e+03,8.535e+04
134.6,9.971e+03,3.755e+02,5.795e+02,1.093e+04
136.1,8.621e+03,2.784e+02,4.801e+02,9.380e+03
137.6,8.431e+03,3.077e+02,4.336e+02,9.173e+03
139.1,8.315e+03,4.013e+02,3.428e+02,9.059e+03
140.6,8.423e+03,4.986e+02,3.026e+02,9.225e+03
142.1,8.518e+03,4.457e+02,2.807e+02,9.245e+03
143.6,9.791e+03,3.950e+02,2.727e+02,1.046e+04
145.1,1.389e+04,4.016e+02,2.892e+02,1.458e+04
146.6,2.031e+04,5.001e+02,3.346e+02,2.115e+04
148.1,2.362e+04,6.634e+02,3.672e+02,2.465e+04
149.6,2.301e+04,8.621e+02,4.136e+02,2.429e+04
151.1,2.124e+04,9.618e+02,4.504e+02,2.266e+04
152.6,1.936e+04,9.855e+02,4.355e+02,2.079e+04
154.1,1.662e+04,9.987e+02,4.235e+02,1.805e+04
155.6,1.442e+04,9.770e+02,4.177e+02,1.582e+04
157.1,1.252e+04,8.163e+02,3.889e+02,1.372e+04
158.5,1.128e+04,7.188e+02,3.580e+02,1.236e+04
160.0,1.178e+04,7.126e+02,3.356e+02,1.283e+04
161.5,1.123e+04,7.142e+02,3.194e+02,1.227e+04
163.0,1.083e+04,7.508e+02,2.961e+02,1.188e+04
164.5,1.400e+04,8.553e+02,3.025e+02,1.516e+04
166.0,1.792e+04,9.669e+02,3.051e+02,1.920e+04
167.5,2.279e+04,1.041e+03,3.514e+02,2.419e+04
169.0,2.517e+04,1.039e+03,3.946e+02,2.660e+04
170.5,2.839e+04,1.022e+03,4.361e+02,2.985e+04
172.0,3.249e+04,9.822e+02,4.522e+02,3.393e+04
173.5,3.514e+04,1.022e+03,4.362e+02,3.660e+04
175.0,3.646e+04,1.079e+03,4.077e+02,3.795e+04
176.5,3.538e+04,1.169e+03,3.755e+02,3.693e+04
178.0,3.155e+04,1.190e+03,3.577e+02,3.310e+04
179.5,2.949e+04,1.210e+03,3.283e+02,3.103e+04
181.0,2.861e+04,1.228e+03,3.013e+02,3.014e+04
182.5,2.748e+04,1.149e+03,2.955e+02,2.892e+04
184.0,2.830e+04,1.208e+03,2.942e+02,2.980e+04
185.5,3.025e+04,1.247e+03,2.871e+02,3.179e+04
187.0,3.247e+04,1.336e+03,2.811e+02,3.409e+04
188.5,3.376e+04,1.229e+03,2.785e+02,3.527e+04
190.0,3.845e+04,1.226e+03,2.883e+02,3.997e+04
191.5,4.163e+04,1.328e+03,2.894e+02,4.324e+04
192.9,4.063e+04,1.396e+03,2.847e+02,4.231e+04
194.4,3.827e+04,1.254e+03,2.622e+02,3.979e+04
195.9,3.421e+04,1.130e+03,2.419e+02,3.558e+04
197.4,3.113e+04,1.033e+03,2.374e+02,3.240e+04
198.9,2.800e+04,9.746e+02,2.483e+02,2.922e+04
